# max displacement in Ang and energy in eV. 
  0.00000000   0.00000000    0.00000000    0.00000000    0.00000000    0.00000000 
  0.00457191   0.00002207    0.00002207    0.00002208    0.00002208    0.00002208 
  0.00914381   0.00008828    0.00008828    0.00008843    0.00008843    0.00008843 
  0.01371572   0.00019864    0.00019864    0.00019938    0.00019938    0.00019938 
  0.01828762   0.00035313    0.00035313    0.00035549    0.00035549    0.00035549 
  0.02285953   0.00055176    0.00055176    0.00055752    0.00055752    0.00055752 
  0.02743143   0.00079454    0.00079454    0.00080647    0.00080647    0.00080647 
  0.03200334   0.00108146    0.00108146    0.00110357    0.00110357    0.00110355 
  0.03657525   0.00141252    0.00141252    0.00145023    0.00145023    0.00145021 
  0.04114715   0.00178772    0.00178772    0.00184813    0.00184813    0.00184808 
  0.04571906   0.00220706    0.00220706    0.00229914    0.00229914    0.00229904 
  0.05029096   0.00267054    0.00267054    0.00280536    0.00280536    0.00280517 
  0.05486287   0.00317816    0.00317816    0.00336911    0.00336911    0.00336880 
  0.05943477   0.00372993    0.00372993    0.00399293    0.00399293    0.00399242 
  0.06400668   0.00432583    0.00432583    0.00467958    0.00467958    0.00467879 
  0.06857859   0.00496588    0.00496588    0.00543205    0.00543205    0.00543086 
  0.07315049   0.00565007    0.00565007    0.00625355    0.00625355    0.00625179 
  0.07772240   0.00637839    0.00637839    0.00714749    0.00714749    0.00714497 
  0.08229430   0.00715086    0.00715086    0.00811753    0.00811753    0.00811397 
  0.08686621   0.00796747    0.00796747    0.00916753    0.00916753    0.00916261 
  0.09143811   0.00882823    0.00882823    0.01030158    0.01030158    0.01029488 
  0.09601002   0.00973312    0.00973312    0.01152399    0.01152399    0.01151501 
  0.10058193   0.01068215    0.01068215    0.01283929    0.01283929    0.01282742 
  0.10515383   0.01167533    0.01167533    0.01425223    0.01425223    0.01423674 
  0.10972574   0.01271265    0.01271265    0.01576779    0.01576779    0.01574779 
  0.11429764   0.01379410    0.01379410    0.01739115    0.01739115    0.01736561 
  0.11886955   0.01491970    0.01491970    0.01912774    0.01912774    0.01909542 
  0.12344145   0.01608944    0.01608944    0.02098319    0.02098319    0.02094265 
  0.12801336   0.01730332    0.01730332    0.02296335    0.02296335    0.02291293 
  0.13258527   0.01856135    0.01856135    0.02507430    0.02507430    0.02501206 
  0.13715717   0.01986351    0.01986351    0.02732235    0.02732235    0.02724607 
  0.14172908   0.02120981    0.02120981    0.02971401    0.02971401    0.02962114 
  0.14630098   0.02260026    0.02260026    0.03225601    0.03225601    0.03214366 
  0.15087289   0.02403485    0.02403485    0.03495534    0.03495534    0.03482020 
  0.15544479   0.02551357    0.02551357    0.03781915    0.03781915    0.03765751 
  0.16001670   0.02703644    0.02703644    0.04085487    0.04085487    0.04066252 
  0.16458861   0.02860345    0.02860345    0.04407011    0.04407011    0.04384234 
  0.16916051   0.03021461    0.03021461    0.04747271    0.04747271    0.04720425 
  0.17373242   0.03186990    0.03186990    0.05107076    0.05107076    0.05075571 
  0.17830432   0.03356933    0.03356933    0.05487253    0.05487253    0.05450434 
  0.18287623   0.03531291    0.03531291    0.05888653    0.05888653    0.05845794 
